 Permeation events over simulation time.
 t(ns) Number of events
   0.00000000               0
   1.00000000               0
   2.00000000               0
   3.00000000               0
   4.00000000               0
   5.00000000               0
   6.00000000               0
   7.00000000               0
   8.00000000               0
   9.00000000               0
   10.0000000               0
   11.0000000               0
   12.0000000               0
   13.0000000               0
   14.0000000               0
   15.0000000               0
   16.0000000               0
   17.0000000               0
   18.0000000               0
   19.0000000               0
   20.0000000               0
   21.0000000               0
   22.0000000               0
   23.0000000               0
   24.0000000               0
   25.0000000               0
   26.0000000               1
   27.0000000               2
   28.0000000               3
   29.0000000               4
   30.0000000               4
   31.0000000               5
   32.0000000               5
   33.0000000               5
   34.0000000               6
   35.0000000               6
   36.0000000               6
   37.0000000               6
   38.0000000               6
   39.0000000               6
   40.0000000               6
   41.0000000               6
   42.0000000               6
   43.0000000               6
   44.0000000               6
   45.0000000               6
   46.0000000               6
   47.0000000               6
   48.0000000               6
   49.0000000               6
   50.0000000               6
   51.0000000               6
   52.0000000               6
   53.0000000               6
   54.0000000               6
   55.0000000               6
   56.0000000               7
   57.0000000               8
   58.0000000               8
   59.0000000               8
   60.0000000               8
   61.0000000               8
   62.0000000               8
   63.0000000               8
   64.0000000               8
   65.0000000               9
   66.0000000              11
   67.0000000              12
   68.0000000              12
   69.0000000              12
   70.0000000              12
   71.0000000              13
   72.0000000              14
   73.0000000              14
   74.0000000              14
   75.0000000              14
   76.0000000              14
   77.0000000              14
   78.0000000              14
   79.0000000              14
   80.0000000              15
   81.0000000              16
   82.0000000              16
   83.0000000              17
   84.0000000              17
   85.0000000              17
   86.0000000              17
   87.0000000              17
   88.0000000              17
   89.0000000              18
   90.0000000              18
   91.0000000              18
   92.0000000              19
   93.0000000              20
   94.0000000              20
   95.0000000              20
   96.0000000              21
   97.0000000              21
   98.0000000              21
   99.0000000              21
   100.000000              21
   101.000000              21
   102.000000              21
   103.000000              21
   104.000000              21
   105.000000              21
   106.000000              21
   107.000000              21
   108.000000              21
   109.000000              21
   110.000000              21
   111.000000              21
   112.000000              21
   113.000000              21
   114.000000              21
   115.000000              21
   116.000000              21
   117.000000              21
   118.000000              21
   119.000000              22
   120.000000              23
   121.000000              23
   122.000000              23
   123.000000              23
   124.000000              24
   125.000000              26
   126.000000              27
   127.000000              28
   128.000000              29
   129.000000              29
   130.000000              29
   131.000000              29
   132.000000              29
   133.000000              29
   134.000000              29
   135.000000              29
   136.000000              29
   137.000000              29
   138.000000              29
   139.000000              29
   140.000000              30
   141.000000              32
   142.000000              33
   143.000000              34
   144.000000              34
   145.000000              34
   146.000000              34
   147.000000              35
   148.000000              36
   149.000000              36
   150.000000              36
   151.000000              36
   152.000000              36
   153.000000              36
   154.000000              36
   155.000000              37
   156.000000              38
   157.000000              38
   158.000000              38
   159.000000              38
   160.000000              38
   161.000000              38
   162.000000              38
   163.000000              38
   164.000000              38
   165.000000              38
   166.000000              38
   167.000000              38
   168.000000              38
   169.000000              38
   170.000000              38
   171.000000              38
   172.000000              38
   173.000000              39
   174.000000              40
   175.000000              40
   176.000000              40
   177.000000              40
   178.000000              40
   179.000000              40
   180.000000              40
   181.000000              40
   182.000000              40
   183.000000              41
   184.000000              41
   185.000000              41
   186.000000              41
   187.000000              41
   188.000000              41
   189.000000              41
   190.000000              41
   191.000000              41
   192.000000              43
   193.000000              45
   194.000000              45
   195.000000              45
   196.000000              46
   197.000000              48
   198.000000              48
   199.000000              48
   200.000000              48
   201.000000              48
   202.000000              48
   203.000000              48
   204.000000              48
   205.000000              48
   206.000000              48
   207.000000              48
   208.000000              48
   209.000000              49
   210.000000              50
   211.000000              50
   212.000000              50
   213.000000              50
   214.000000              50
   215.000000              50
   216.000000              50
   217.000000              50
   218.000000              50
   219.000000              50
   220.000000              50
   221.000000              50
   222.000000              51
   223.000000              51
   224.000000              51
   225.000000              51
   226.000000              51
   227.000000              51
   228.000000              51
   229.000000              51
   230.000000              51
   231.000000              51
   232.000000              51
   233.000000              51
   234.000000              51
   235.000000              51
   236.000000              51
   237.000000              51
   238.000000              51
   239.000000              52
   240.000000              53
   241.000000              54
   242.000000              55
   243.000000              55
   244.000000              55
   245.000000              56
   246.000000              58
   247.000000              59
   248.000000              59
   249.000000              59
   250.000000              59
   251.000000              59
   252.000000              59
   253.000000              59
   254.000000              59
   255.000000              59
   256.000000              59
   257.000000              59
   258.000000              59
   259.000000              59
   260.000000              59
   261.000000              59
   262.000000              59
   263.000000              59
   264.000000              59
   265.000000              59
   266.000000              59
   267.000000              59
   268.000000              61
   269.000000              62
   270.000000              62
   271.000000              64
   272.000000              65
   273.000000              65
   274.000000              66
   275.000000              67
   276.000000              67
   277.000000              67
   278.000000              67
   279.000000              67
   280.000000              68
   281.000000              69
   282.000000              69
   283.000000              69
   284.000000              69
   285.000000              69
   286.000000              69
   287.000000              69
   288.000000              69
   289.000000              69
   290.000000              69
   291.000000              70
   292.000000              71
   293.000000              71
   294.000000              71
   295.000000              71
   296.000000              71
   297.000000              71
   298.000000              72
   299.000000              73
   300.000000              73
   301.000000              74
   302.000000              75
   303.000000              75
   304.000000              75
   305.000000              75
   306.000000              75
   307.000000              75
   308.000000              75
   309.000000              75
   310.000000              76
   311.000000              77
   312.000000              77
   313.000000              77
   314.000000              77
   315.000000              77
   316.000000              77
   317.000000              77
   318.000000              77
   319.000000              77
   320.000000              77
   321.000000              77
   322.000000              77
   323.000000              77
   324.000000              77
   325.000000              77
   326.000000              77
   327.000000              77
   328.000000              77
   329.000000              77
   330.000000              77
   331.000000              77
   332.000000              77
   333.000000              77
   334.000000              77
   335.000000              77
   336.000000              77
   337.000000              77
   338.000000              77
   339.000000              77
   340.000000              77
   341.000000              77
   342.000000              77
   343.000000              77
   344.000000              77
   345.000000              77
   346.000000              77
   347.000000              77
   348.000000              77
   349.000000              77
   350.000000              77
   351.000000              77
   352.000000              77
   353.000000              77
   354.000000              77
   355.000000              77
   356.000000              77
   357.000000              77
   358.000000              77
   359.000000              77
   360.000000              77
   361.000000              77
   362.000000              77
   363.000000              77
   364.000000              77
   365.000000              77
   366.000000              77
   367.000000              77
   368.000000              77
   369.000000              77
   370.000000              77
   371.000000              77
   372.000000              77
   373.000000              77
   374.000000              78
   375.000000              79
   376.000000              80
   377.000000              80
   378.000000              80
   379.000000              80
   380.000000              80
   381.000000              80
   382.000000              80
   383.000000              80
   384.000000              80
   385.000000              80
   386.000000              80
   387.000000              80
   388.000000              80
   389.000000              80
   390.000000              80
   391.000000              80
   392.000000              80
   393.000000              80
   394.000000              81
   395.000000              82
   396.000000              82
   397.000000              82
   398.000000              82
   399.000000              82
   400.000000              83
   401.000000              84
   402.000000              84
   403.000000              84
   404.000000              84
   405.000000              84
   406.000000              84
   407.000000              85
   408.000000              86
   409.000000              86
   410.000000              86
   411.000000              86
   412.000000              86
   413.000000              86
   414.000000              86
   415.000000              86
   416.000000              86
   417.000000              86
   418.000000              86
   419.000000              86
   420.000000              86
   421.000000              86
   422.000000              86
   423.000000              86
   424.000000              86
   425.000000              86
   426.000000              86
   427.000000              86
   428.000000              86
   429.000000              86
   430.000000              87
   431.000000              88
   432.000000              88
   433.000000              88
   434.000000              88
   435.000000              88
   436.000000              88
   437.000000              88
   438.000000              88
   439.000000              88
   440.000000              88
   441.000000              88
   442.000000              88
   443.000000              88
   444.000000              88
   445.000000              89
   446.000000              89
   447.000000              90
   448.000000              92
   449.000000              93
   450.000000              93
   451.000000              93
   452.000000              93
   453.000000              93
   454.000000              93
   455.000000              93
   456.000000              93
   457.000000              93
   458.000000              93
   459.000000              93
   460.000000              93
   461.000000              94
   462.000000              94
   463.000000              94
   464.000000              94
   465.000000              94
   466.000000              94
   467.000000              94
   468.000000              94
   469.000000              94
   470.000000              94
   471.000000              94
   472.000000              94
   473.000000              94
   474.000000              94
   475.000000              94
   476.000000              94
   477.000000              94
   478.000000              94
   479.000000              94
   480.000000              94
   481.000000              94
   482.000000              94
   483.000000              94
   484.000000              94
   485.000000              94
   486.000000              94
   487.000000              94
   488.000000              94
   489.000000              94
   490.000000              94
   491.000000              94
   492.000000              95
   493.000000              96
   494.000000              96
   495.000000              96
   496.000000              96
   497.000000              96
   498.000000              96
   499.000000              96
   500.000000              96
   501.000000              96
   502.000000              96
   503.000000              96
   504.000000              96
   505.000000              96
   506.000000              96
   507.000000              96
   508.000000              96
   509.000000              96
   510.000000              96
   511.000000              96
   512.000000              96
   513.000000              96
   514.000000              96
   515.000000              96
   516.000000              96
   517.000000              96
   518.000000              96
   519.000000              96
   520.000000              96
   521.000000              96
   522.000000              96
   523.000000              96
   524.000000              96
   525.000000              96
   526.000000              96
   527.000000              96
   528.000000              96
   529.000000              96
   530.000000              96
   531.000000              96
   532.000000              96
   533.000000              96
   534.000000              96
   535.000000              97
   536.000000              98
   537.000000              99
   538.000000             102
   539.000000             103
   540.000000             104
   541.000000             105
   542.000000             105
   543.000000             105
   544.000000             105
   545.000000             105
   546.000000             105
   547.000000             106
   548.000000             106
   549.000000             106
   550.000000             106
   551.000000             106
   552.000000             106
   553.000000             106
   554.000000             106
   555.000000             106
   556.000000             106
   557.000000             106
   558.000000             106
   559.000000             106
   560.000000             106
   561.000000             106
   562.000000             106
   563.000000             106
   564.000000             106
   565.000000             106
   566.000000             106
   567.000000             106
   568.000000             106
   569.000000             106
   570.000000             106
   571.000000             106
   572.000000             106
   573.000000             106
   574.000000             106
   575.000000             106
   576.000000             106
   577.000000             106
   578.000000             106
   579.000000             106
   580.000000             106
   581.000000             106
   582.000000             106
   583.000000             106
   584.000000             106
   585.000000             106
   586.000000             106
   587.000000             106
   588.000000             106
   589.000000             106
   590.000000             106
   591.000000             106
   592.000000             106
   593.000000             106
   594.000000             106
   595.000000             106
   596.000000             106
   597.000000             106
   598.000000             106
   599.000000             106
   600.000000             106
   601.000000             106
   602.000000             106
   603.000000             106
   604.000000             106
   605.000000             107
   606.000000             108
   607.000000             108
   608.000000             108
   609.000000             108
   610.000000             108
   611.000000             108
   612.000000             108
   613.000000             108
   614.000000             108
   615.000000             109
   616.000000             109
   617.000000             109
   618.000000             109
   619.000000             109
   620.000000             109
   621.000000             109
   622.000000             109
   623.000000             109
   624.000000             109
   625.000000             110
   626.000000             110
   627.000000             110
   628.000000             110
   629.000000             110
   630.000000             110
   631.000000             110
   632.000000             111
   633.000000             112
   634.000000             112
   635.000000             112
   636.000000             112
   637.000000             112
   638.000000             113
   639.000000             114
   640.000000             114
   641.000000             114
   642.000000             114
   643.000000             114
   644.000000             114
   645.000000             115
   646.000000             116
   647.000000             116
   648.000000             116
   649.000000             116
   650.000000             116
   651.000000             116
   652.000000             116
   653.000000             116
   654.000000             116
   655.000000             116
   656.000000             116
   657.000000             116
   658.000000             116
   659.000000             116
   660.000000             116
   661.000000             116
   662.000000             116
   663.000000             116
